#iv) Total RRC: sum of state-specific RRC + rest contributions:
#--------------------------------------------------------------
#o Use the last column for the total RRC
#o Temparature is in K
#------------------------------
#TOTAL RECOMBINATION RATE COEFFICIENTS (RRC):
#81 =temperatures
#
#log(T)   RRC(low n)    RRC(DR)   HRC(n=11,inf)  RRC(high n)  RRC(total)
#
  1.0     1.1376E-11   0.0000E+00   1.7754E-11   1.7754E-11   2.9130E-11
  1.1     1.0135E-11   0.0000E+00   1.5192E-11   1.5192E-11   2.5327E-11
  1.2     9.0287E-12   0.0000E+00   1.2933E-11   1.2933E-11   2.1962E-11
  1.3     8.0418E-12   0.0000E+00   1.1059E-11   1.1059E-11   1.9101E-11
  1.4     7.1617E-12   0.0000E+00   9.3818E-12   9.3818E-12   1.6543E-11
  1.5     6.3766E-12  6.6840e-2357   7.9583E-12   7.9583E-12   1.4335E-11
  1.6     5.6761E-12  5.2081e-1874   6.7369E-12   6.7369E-12   1.2413E-11
  1.7     5.0510E-12  1.9159e-1490   5.6862E-12   5.6862E-12   1.0737E-11
  1.8     4.4931E-12  8.9357e-1186   4.7882E-12   4.7882E-12   9.2813E-12
  1.9     3.9949E-12   8.9225e-944   4.0175E-12   4.0175E-12   8.0124E-12
  2.0     3.5500E-12   1.4816e-751   3.3626E-12   3.3626E-12   6.9126E-12
  2.1     3.1525E-12   7.1064e-599   2.8062E-12   2.8062E-12   5.9587E-12
  2.2     2.7971E-12   1.3446e-477   2.3245E-12   2.3245E-12   5.1216E-12
  2.3     2.4794E-12   2.9311e-381   1.9329E-12   1.9329E-12   4.4123E-12
  2.4     2.1953E-12   1.0137e-304   1.5898E-12   1.5898E-12   3.7851E-12
  2.5     1.9411E-12   6.6761e-244   1.3055E-12   1.3055E-12   3.2466E-12
  2.6     1.7137E-12   1.4223e-195   1.0676E-12   1.0676E-12   2.7813E-12
  2.7     1.5103E-12   3.5342e-157   8.6886E-13   8.6886E-13   2.3792E-12
  2.8     1.3284E-12   1.0968e-126   7.0411E-13   7.0411E-13   2.0325E-12
  2.9     1.1659E-12   1.7541e-102   5.6740E-13   5.6740E-13   1.7333E-12
  3.0     1.0209E-12   2.8000E-83   4.5539E-13   4.5539E-13   1.4763E-12
  3.1     8.9193E-13   4.7256E-68   3.6386E-13   3.6386E-13   1.2558E-12
  3.2     7.7756E-13   5.5167E-56   2.8795E-13   2.8795E-13   1.0655E-12
  3.3     6.7681E-13   1.9845E-46   2.2890E-13   2.2890E-13   9.0571E-13
  3.4     5.8886E-13   7.2155E-39   1.7954E-13   1.7954E-13   7.6840E-13
  3.5     5.1305E-13   6.8161E-33   1.4060E-13   1.4060E-13   6.5365E-13
  3.6     4.4862E-13   3.5426E-28   1.0967E-13   1.0967E-13   5.5829E-13
  3.7     3.9438E-13   1.8388E-24   8.5110E-14   8.5110E-14   4.7949E-13
  3.8     3.4861E-13   1.5308E-21   6.5815E-14   6.5815E-14   4.1443E-13
  3.9     3.0942E-13   2.9776E-19   5.0636E-14   5.0636E-14   3.6006E-13
  4.0     2.7517E-13   1.8249E-17   3.8850E-14   3.8868E-14   3.1404E-13
  4.1     2.4482E-13   4.4694E-16   2.9715E-14   3.0162E-14   2.7498E-13
  4.2     2.1829E-13   5.2842E-15   2.2525E-14   2.7809E-14   2.4610E-13
  4.3     1.9699E-13   3.5069E-14   1.7210E-14   5.2279E-14   2.4927E-13
  4.4     1.8439E-13   1.4735E-13   1.2979E-14   1.6033E-13   3.4472E-13
  4.5     1.8484E-13   4.3150E-13   9.7988E-15   4.4129E-13   6.2613E-13
  4.6     2.0032E-13   9.5009E-13   7.3835E-15   9.5747E-13   1.1578E-12
  4.7     2.2767E-13   1.6695E-12   5.5479E-15   1.6750E-12   1.9027E-12
  4.8     2.5918E-13   2.4520E-12   4.1635E-15   2.4562E-12   2.7154E-12
  4.9     2.8585E-13   3.1207E-12   3.1159E-15   3.1238E-12   3.4096E-12
  5.0     3.0098E-13   3.5400E-12   2.3313E-15   3.5424E-12   3.8434E-12
  5.1     2.9914E-13   3.6603E-12   1.7436E-15   3.6621E-12   3.9612E-12
  5.2     2.8568E-13   3.5120E-12   1.2953E-15   3.5133E-12   3.7990E-12
  5.3     2.6229E-13   3.1725E-12   9.6436E-16   3.1734E-12   3.4357E-12
  5.4     2.3012E-13   2.7298E-12   7.1138E-16   2.7305E-12   2.9606E-12
  5.5     1.9838E-13   2.2588E-12   5.2202E-16   2.2593E-12   2.4577E-12
  5.6     1.6737E-13   1.8113E-12   3.8427E-16   1.8117E-12   1.9790E-12
  5.7     1.3665E-13   1.4163E-12   2.8452E-16   1.4166E-12   1.5532E-12
  5.8     1.1003E-13   1.0853E-12   2.0821E-16   1.0856E-12   1.1956E-12
  5.9     8.7579E-14   8.1844E-13   1.5141E-16   8.1859E-13   9.0617E-13
  6.0     6.9792E-14   6.0928E-13   1.1157E-16   6.0939E-13   6.7918E-13
  6.1     5.5271E-14   4.4894E-13   8.1935E-17   4.4902E-13   5.0430E-13
  6.2     4.2927E-14   3.2810E-13   5.8488E-17   3.2816E-13   3.7109E-13
  6.3     3.3654E-14   2.3823E-13   4.3137E-17   2.3828E-13   2.7193E-13
  6.4     2.6334E-14   1.7209E-13   3.1457E-17   1.7212E-13   1.9845E-13
  6.5     1.7197E-14   1.2379E-13   2.3047E-17   1.2381E-13   1.4101E-13
  6.6     1.3141E-14   8.8759E-14   1.6912E-17   8.8776E-14   1.0192E-13
  6.7     1.0018E-14   6.3475E-14   1.2422E-17   6.3487E-14   7.3505E-14
  6.8     7.3523E-15   4.5299E-14   9.1531E-18   4.5308E-14   5.2661E-14
  6.9     5.5541E-15   3.2275E-14   6.7597E-18   3.2281E-14   3.7835E-14
  7.0     4.1902E-15   2.2965E-14   5.0206E-18   2.2970E-14   2.7160E-14
  7.1     3.1578E-15   1.6323E-14   3.4882E-18   1.6327E-14   1.9485E-14
  7.2     2.3788E-15   1.1593E-14   2.5729E-18   1.1596E-14   1.3974E-14
  7.3     1.7923E-15   8.2282E-15   1.9333E-18   8.2301E-15   1.0022E-14
  7.4     1.3513E-15   5.8369E-15   1.4491E-18   5.8383E-15   7.1896E-15
  7.5     1.0204E-15   4.1388E-15   1.1002E-18   4.1399E-15   5.1603E-15
  7.6     7.7206E-16   2.9338E-15   7.8600E-19   2.9346E-15   3.7067E-15
  7.7     5.8581E-16   2.0791E-15   5.6069E-19   2.0796E-15   2.6654E-15
  7.8     4.4622E-16   1.4731E-15   4.0003E-19   1.4735E-15   1.9197E-15
  7.9     3.4148E-16   1.0435E-15   2.8485E-19   1.0438E-15   1.3853E-15
  8.0     2.6271E-16   7.3912E-16   2.0299E-19   7.3933E-16   1.0020E-15
  8.1     2.0341E-16   5.2347E-16   1.4467E-19   5.2362E-16   7.2703E-16
  8.2     1.5865E-16   3.7071E-16   1.0234E-19   3.7081E-16   5.2946E-16
  8.3     1.2471E-16   2.6251E-16   7.3354E-20   2.6258E-16   3.8729E-16
  8.4     9.8906E-17   1.8588E-16   5.1908E-20   1.8593E-16   2.8484E-16
  8.5     7.9133E-17   1.3161E-16   3.6887E-20   1.3165E-16   2.1078E-16
  8.6     6.3924E-17   9.3187E-17   2.6219E-20   9.3213E-17   1.5714E-16
  8.7     5.2143E-17   6.5978E-17   1.8616E-20   6.5997E-17   1.1814E-16
  8.8     4.2931E-17   4.6713E-17   1.3223E-20   4.6726E-17   8.9657E-17
  8.9     3.5682E-17   3.3072E-17   9.3783E-21   3.3081E-17   6.8763E-17
  9.0     2.9913E-17   2.3414E-17   6.6584E-21   2.3421E-17   5.3334E-17
